Time (s),Current (A)
0,2.0998877549999184e-27
1e-12,2.0998877549999184e-27
2e-12,2.0456223520648466e-27
3e-12,1.9418082593258833e-27
4e-12,1.7973632564921572e-27
5e-12,1.624036842506893e-27
5.9999999999999995e-12,1.4348184099177707e-27
6.999999999999999e-12,1.2422673566908626e-27
8e-12,1.0571751807297857e-27
9e-12,8.876820719455613e-28
1e-11,7.389635778287662e-28
1.0999999999999999e-11,6.134125325740758e-28
1.1999999999999999e-11,5.111258638557104e-28
1.2999999999999999e-11,4.305676908761269e-28
1.3999999999999999e-11,3.692144246586482e-28
1.5e-11,3.241480434762467e-28
1.6e-11,2.9247589593273118e-28
1.7e-11,2.716253871132279e-28
1.8e-11,2.595703599977961e-28
1.9e-11,2.5467887347641048e-28
2e-11,2.5569910772071937e-28
2.1e-11,2.612478375990657e-28
2.1999999999999998e-11,2.690632005392102e-28
2.2999999999999998e-11,2.775514193475992e-28
2.3999999999999998e-11,2.8433852494735846e-28
2.4999999999999998e-11,2.86951669023483e-28
2.5999999999999997e-11,2.8438319407686484e-28
2.6999999999999997e-11,2.7746078004597943e-28
2.7999999999999997e-11,2.705136462055613e-28
2.8999999999999997e-11,2.66233866549892e-28
3e-11,2.6748091588868484e-28
3.1e-11,2.764741560690176e-28
3.2000000000000006e-11,2.9902165812889515e-28
3.300000000000001e-11,3.4480513062817855e-28
3.400000000000001e-11,4.3365029449293765e-28
3.5000000000000015e-11,6.109863049524877e-28
3.600000000000002e-11,9.751470464447465e-28
3.700000000000002e-11,1.7435655783742955e-27
3.8000000000000024e-11,3.409486018166041e-27
3.900000000000003e-11,7.121751322350378e-27
4.000000000000003e-11,1.5630362455720802e-26
4.100000000000003e-11,3.5700581380027076e-26
4.2000000000000036e-11,8.440299154033326e-26
4.300000000000004e-11,2.0568448702053266e-25
4.400000000000004e-11,5.126946764268808e-25
4.5000000000000045e-11,1.2808483856874276e-24
4.600000000000005e-11,3.0477441755223654e-24
4.700000000000005e-11,6.273347424867737e-24
4.8000000000000054e-11,1.026578885202252e-23
4.900000000000006e-11,1.4247086054528304e-23
5.000000000000006e-11,2.104188282794038e-23
5.100000000000006e-11,4.132036579671157e-23
5.2000000000000066e-11,1.0900629375120047e-22
5.300000000000007e-11,3.313677587450138e-22
5.400000000000007e-11,9.659259748514984e-22
5.5000000000000075e-11,2.127619454490837e-21
5.600000000000008e-11,3.109247078088729e-21
5.700000000000008e-11,3.507944037071096e-21
5.8000000000000084e-11,3.59410211600217e-21
5.900000000000008e-11,3.605429573527415e-21
6.000000000000008e-11,3.613017169203959e-21
6.100000000000007e-11,3.616188961639427e-21
6.200000000000007e-11,3.613582570086539e-21
6.300000000000007e-11,3.603405938050236e-21
6.400000000000006e-11,3.584527622858651e-21
6.500000000000006e-11,3.555878101379833e-21
6.600000000000006e-11,3.5164440698298024e-21
6.700000000000005e-11,3.465271826620371e-21
6.800000000000005e-11,3.397487818598485e-21
6.900000000000005e-11,3.2920125509472693e-21
7.000000000000004e-11,3.096261313883142e-21
7.100000000000004e-11,2.7543786203596682e-21
7.200000000000004e-11,2.283811197570655e-21
7.300000000000003e-11,1.7305816711305584e-21
7.400000000000003e-11,1.1671696626060646e-21
7.500000000000003e-11,6.915496806782911e-22
7.600000000000002e-11,3.594371973251239e-22
7.700000000000002e-11,1.6586842790824834e-22
7.800000000000001e-11,6.917613405840392e-23
7.900000000000001e-11,2.655137929506203e-23
8.000000000000001e-11,9.553205942026272e-24
8.1e-11,3.2667627320685093e-24
8.2e-11,1.0622864046738734e-24
8.3e-11,3.308344329825547e-25
8.4e-11,1.0667079199111474e-25
8.499999999999999e-11,4.6855970492476473e-26
8.599999999999999e-11,4.058510927502923e-26
8.699999999999998e-11,5.75696469662379e-26
8.799999999999998e-11,9.618453472928778e-26
8.899999999999998e-11,1.7062497465261672e-25
8.999999999999997e-11,3.1611135800982402e-25
9.099999999999997e-11,6.113586741886279e-25
9.199999999999997e-11,1.2376650145289741e-24
9.299999999999996e-11,2.6278838115983972e-24
9.399999999999996e-11,5.85894495441254e-24
9.499999999999996e-11,1.3721195814319144e-23
9.599999999999995e-11,3.3789634170744776e-23
9.699999999999995e-11,8.756878326805773e-23
9.799999999999995e-11,2.367679884417509e-22
9.899999999999994e-11,6.432422556259739e-22
9.999999999999994e-11,1.5690920182581236e-21
1.0099999999999994e-10,2.9076649688845533e-21
1.0199999999999993e-10,4.1154506351356085e-21
1.0299999999999993e-10,5.3033713420997695e-21
1.0399999999999993e-10,6.413233548293587e-21
1.0499999999999992e-10,6.938221375124131e-21
1.0599999999999992e-10,6.893610137183185e-21
1.0699999999999991e-10,6.558042468004198e-21
1.0799999999999991e-10,6.290488526760219e-21
1.0899999999999991e-10,6.110055142454331e-21
1.099999999999999e-10,6.009350999239401e-21
1.109999999999999e-10,5.962330245736771e-21
1.119999999999999e-10,5.946484540976732e-21
1.129999999999999e-10,5.946803109709324e-21
1.1399999999999989e-10,5.9549445144818896e-21
1.1499999999999989e-10,5.967027567178526e-21
1.1599999999999988e-10,5.981565270396201e-21
1.1699999999999988e-10,5.9980831547037236e-21
1.1799999999999988e-10,6.01675354457566e-21
1.1899999999999987e-10,6.0368020088404776e-21
1.1999999999999987e-10,6.05890720980877e-21
1.2099999999999987e-10,6.082930377814639e-21
1.2199999999999986e-10,6.109122912109112e-21
1.2299999999999986e-10,6.1327863811210835e-21
1.2399999999999986e-10,6.157900852282218e-21
1.2499999999999985e-10,6.183667514462858e-21
1.2599999999999985e-10,6.209519648209955e-21
1.2699999999999985e-10,6.2332068626914926e-21
1.2799999999999984e-10,6.2526826450240526e-21
1.2899999999999984e-10,6.2684194597386734e-21
1.2999999999999984e-10,6.27981698734484e-21
1.3099999999999983e-10,6.287318781472142e-21
1.3199999999999983e-10,6.294013310932439e-21
1.3299999999999983e-10,6.302187000786297e-21
1.3399999999999982e-10,6.3140602073118945e-21
1.3499999999999982e-10,6.32694929704556e-21
1.3599999999999981e-10,6.340274414875233e-21
1.369999999999998e-10,6.354046608988235e-21
1.379999999999998e-10,6.368566371687265e-21
1.389999999999998e-10,6.3836179135445466e-21
1.399999999999998e-10,6.398690257479337e-21
1.409999999999998e-10,6.413692393616435e-21
1.419999999999998e-10,6.425635657041767e-21
1.429999999999998e-10,6.435045255411779e-21
1.439999999999998e-10,6.447505263698639e-21
1.4499999999999978e-10,6.460207301284011e-21
1.4599999999999978e-10,6.469812818111695e-21
1.4699999999999978e-10,6.466874410367141e-21
1.4799999999999977e-10,6.466461196630476e-21
1.4899999999999977e-10,6.475149779264656e-21
1.4999999999999977e-10,6.513434982869043e-21
1.5099999999999976e-10,6.6500298894886426e-21
1.5199999999999976e-10,7.066839314085263e-21
1.5299999999999976e-10,7.86537977263079e-21
1.5399999999999975e-10,8.48678145293734e-21
1.5499999999999975e-10,8.581906018047605e-21
1.5599999999999975e-10,8.357556529040153e-21
1.5699999999999974e-10,8.001936059573271e-21
1.5799999999999974e-10,7.606587702839581e-21
1.5899999999999974e-10,7.237357826230233e-21
1.5999999999999973e-10,6.94584509085207e-21
1.6099999999999973e-10,6.75092189380568e-21
1.6199999999999972e-10,6.640268802133795e-21
1.6299999999999972e-10,6.58871156382617e-21
1.6399999999999972e-10,6.5721184382651e-21
1.6499999999999971e-10,6.578820932041018e-21
1.659999999999997e-10,6.62299232198041e-21
1.669999999999997e-10,6.809875688301801e-21
1.679999999999997e-10,7.589087957045196e-21
1.689999999999997e-10,9.937070259663548e-21
1.699999999999997e-10,1.2885128359215641e-20
1.709999999999997e-10,1.4136440032463472e-20
1.719999999999997e-10,1.4204285806542363e-20
1.7299999999999969e-10,1.4286477451545388e-20
1.7399999999999968e-10,1.43864992189159e-20
1.7499999999999968e-10,1.4505371088960286e-20
1.7599999999999968e-10,1.4622721766171945e-20
1.7699999999999967e-10,1.471662399208035e-20
1.7799999999999967e-10,1.4775629848435852e-20
1.7899999999999967e-10,1.479690861960715e-20
1.7999999999999966e-10,1.48295108543708e-20
1.8099999999999966e-10,1.4872829645092403e-20
1.8199999999999966e-10,1.4923435215122425e-20
1.8299999999999965e-10,1.498098997297333e-20
1.8399999999999965e-10,1.5038430812762406e-20
1.8499999999999965e-10,1.5096499124813996e-20
1.8599999999999964e-10,1.5153322403919488e-20
1.8699999999999964e-10,1.5199468319194433e-20
1.8799999999999964e-10,1.5233689904657188e-20
1.8899999999999963e-10,1.526012147854707e-20
1.8999999999999963e-10,1.5285336974134443e-20
1.9099999999999962e-10,1.5328291399128786e-20
1.9199999999999962e-10,1.5405789481492787e-20
1.9299999999999962e-10,1.5503791319477436e-20
1.9399999999999961e-10,1.5597944041012252e-20
1.949999999999996e-10,1.567903847965804e-20
1.959999999999996e-10,1.5763155266067382e-20
1.969999999999996e-10,1.5856955021041055e-20
1.979999999999996e-10,1.600086913857281e-20
1.989999999999996e-10,1.6154336245302322e-20
1.999999999999996e-10,1.6265122694132423e-20
2.009999999999996e-10,1.627577815502409e-20
2.0199999999999959e-10,1.627521336347972e-20
2.0299999999999958e-10,1.625166494279625e-20
2.0399999999999958e-10,1.6195833537099358e-20
2.0499999999999958e-10,1.611062002454045e-20
2.0599999999999957e-10,1.602556110505448e-20
2.0699999999999957e-10,1.5996993061437878e-20
2.0799999999999957e-10,1.6058913143702364e-20
2.0899999999999956e-10,1.619706487387951e-20
2.0999999999999956e-10,1.63257047002351e-20
2.1099999999999956e-10,1.6380532773300496e-20
2.1199999999999955e-10,1.6361814932705196e-20
2.1299999999999955e-10,1.631620213915898e-20
2.1399999999999955e-10,1.6293283150840355e-20
2.1499999999999954e-10,1.6340348986960745e-20
2.1599999999999954e-10,1.652798045068994e-20
2.1699999999999953e-10,1.679557387014867e-20
2.1799999999999953e-10,1.6933171650200248e-20
2.1899999999999953e-10,1.70052519987262e-20
2.1999999999999952e-10,1.703170577751806e-20
2.2099999999999952e-10,1.7059124347727902e-20
2.2199999999999952e-10,1.7088418923458597e-20
2.2299999999999951e-10,1.7130809148590654e-20
2.239999999999995e-10,1.7189685111979763e-20
2.249999999999995e-10,1.7253706612984223e-20
2.259999999999995e-10,1.7309791284933702e-20
2.269999999999995e-10,1.7348324053379328e-20
2.279999999999995e-10,1.7364801247748018e-20
2.289999999999995e-10,1.7366100980818864e-20
2.299999999999995e-10,1.7365492914176146e-20
2.3099999999999949e-10,1.7365742541730558e-20
2.3199999999999948e-10,1.7375070896911526e-20
2.329999999999995e-10,1.740775951041191e-20
2.339999999999995e-10,1.7480105802811554e-20
2.349999999999995e-10,1.7606766327313542e-20
2.359999999999995e-10,1.7789653351432785e-20
2.369999999999995e-10,1.8003317615424465e-20
2.379999999999995e-10,1.8209032527456355e-20
2.389999999999995e-10,1.8375823884822832e-20
2.399999999999995e-10,1.8493066633887604e-20
2.409999999999995e-10,1.8526225801521407e-20
2.419999999999995e-10,1.856234076555777e-20
2.4299999999999947e-10,1.8596607187485575e-20
2.4399999999999947e-10,1.862061857732392e-20
2.4499999999999946e-10,1.8633899738810686e-20
2.4599999999999946e-10,1.864275599235967e-20
2.4699999999999946e-10,1.865200844272392e-20
2.4799999999999945e-10,1.866071504272749e-20
2.4899999999999945e-10,1.866894417746755e-20
2.4999999999999945e-10,1.8677384591092736e-20
2.5099999999999944e-10,1.868752815258989e-20
2.5199999999999944e-10,1.8706275684730206e-20
2.5299999999999944e-10,1.8744387041988096e-20
2.5399999999999943e-10,1.8819521624522763e-20
2.5499999999999943e-10,1.8949313275347704e-20
2.5599999999999943e-10,1.913225026655167e-20
2.569999999999994e-10,1.9354079736295764e-20
2.579999999999994e-10,1.9555963004378916e-20
2.589999999999994e-10,1.96701413213735e-20
2.599999999999994e-10,1.9756396378332723e-20
2.609999999999994e-10,1.9823754533393423e-20
2.619999999999994e-10,1.9840075752546624e-20
2.629999999999994e-10,1.979491197781093e-20
2.639999999999994e-10,1.9724879923862982e-20
2.649999999999994e-10,1.960987270340647e-20
2.659999999999994e-10,1.9413220674970294e-20
2.669999999999994e-10,1.9141880417781293e-20
2.679999999999994e-10,1.891010106595272e-20
2.689999999999994e-10,1.8812944505014884e-20
2.699999999999994e-10,1.8834520859813954e-20
2.709999999999994e-10,1.89423714827509e-20
2.7199999999999937e-10,1.9080427398937734e-20
2.7299999999999937e-10,1.9254886316245672e-20
2.7399999999999936e-10,1.9467483298197477e-20
2.7499999999999936e-10,1.9702627382475097e-20
2.7599999999999936e-10,1.9917114373380712e-20
2.7699999999999935e-10,2.0090712171257357e-20
2.7799999999999935e-10,2.0195123870393195e-20
2.7899999999999935e-10,2.027562947867344e-20
2.7999999999999934e-10,2.0338278208388573e-20
2.8099999999999934e-10,2.0365079129892255e-20
2.8199999999999934e-10,2.034825064628704e-20
2.8299999999999933e-10,2.027703624762141e-20
2.8399999999999933e-10,2.0169106852873342e-20
2.8499999999999933e-10,2.00188408536531e-20
2.859999999999993e-10,1.9816624082559586e-20
2.869999999999993e-10,1.9560703099346277e-20
2.879999999999993e-10,1.9259728863079145e-20
2.889999999999993e-10,1.8927957008697078e-20
2.899999999999993e-10,1.858288404945512e-20
2.909999999999993e-10,1.8237015202134088e-20
2.919999999999993e-10,1.7916173974544497e-20
2.929999999999993e-10,1.763575149758617e-20
2.939999999999993e-10,1.7445404131628818e-20
2.949999999999993e-10,1.7451644445736176e-20
2.959999999999993e-10,1.7464028245527248e-20
2.969999999999993e-10,1.7471256746353367e-20
2.979999999999993e-10,1.7481533322329404e-20
2.989999999999993e-10,1.7495070438305655e-20
2.999999999999993e-10,1.7510401792830004e-20
3.0099999999999927e-10,1.752669799926572e-20
3.0199999999999927e-10,1.7544118941863392e-20
3.0299999999999926e-10,1.7561940385529676e-20
3.0399999999999926e-10,1.758098881981011e-20
3.0499999999999926e-10,1.7599641404032405e-20
3.0599999999999925e-10,1.7620013430789992e-20
3.0699999999999925e-10,1.7640399985526662e-20
3.0799999999999925e-10,1.7661416866015427e-20
3.0899999999999924e-10,1.767986379081778e-20
3.0999999999999924e-10,1.768701560186383e-20
3.1099999999999924e-10,1.7663565465273682e-20
3.1199999999999923e-10,1.7569954940554522e-20
3.1299999999999923e-10,1.73702356362443e-20
3.1399999999999923e-10,1.7114484847004058e-20
3.149999999999992e-10,1.694630881190844e-20
3.159999999999992e-10,1.6914004602045233e-20
3.169999999999992e-10,1.6976859876187866e-20
3.179999999999992e-10,1.7063939133245342e-20
3.189999999999992e-10,1.711296185238952e-20
3.199999999999992e-10,1.7104462878056837e-20
3.209999999999992e-10,1.7058973893282018e-20
3.219999999999992e-10,1.6987330316758746e-20
3.229999999999992e-10,1.6888328462693628e-20
3.239999999999992e-10,1.6784096425853896e-20
3.249999999999992e-10,1.6696124246060887e-20
3.259999999999992e-10,1.664098512233229e-20
3.269999999999992e-10,1.661999681772076e-20
3.279999999999992e-10,1.668327155444362e-20
3.2899999999999917e-10,1.6753024439219197e-20
3.2999999999999917e-10,1.682277997679441e-20
3.3099999999999917e-10,1.687212543271654e-20
3.3199999999999916e-10,1.691328337121128e-20
3.3299999999999916e-10,1.6950894246889597e-20
3.3399999999999916e-10,1.6992117682007004e-20
3.3499999999999915e-10,1.7033824952952045e-20
3.3599999999999915e-10,1.707460735837123e-20
3.3699999999999915e-10,1.7109847852252125e-20
3.3799999999999914e-10,1.713047967515048e-20
3.3899999999999914e-10,1.7127465656595125e-20
3.3999999999999914e-10,1.7123633079454274e-20
3.4099999999999913e-10,1.7120481776244358e-20
3.4199999999999913e-10,1.7116301454988648e-20
3.429999999999991e-10,1.710932972699285e-20
3.439999999999991e-10,1.7110190448533982e-20
3.449999999999991e-10,1.7114006604761917e-20
3.459999999999991e-10,1.7114344059261048e-20
3.469999999999991e-10,1.710876608717151e-20
3.479999999999991e-10,1.7100195238851596e-20
3.489999999999991e-10,1.7090992049563363e-20
3.499999999999991e-10,1.707461157440327e-20
3.509999999999991e-10,1.7056267403560336e-20
3.519999999999991e-10,1.7050272680561732e-20
3.529999999999991e-10,1.706755537592326e-20
3.539999999999991e-10,1.71184375398301e-20
3.549999999999991e-10,1.7208761648132478e-20
3.559999999999991e-10,1.7345204196203122e-20
3.569999999999991e-10,1.7536283001024053e-20
3.5799999999999907e-10,1.7788549289768644e-20
3.5899999999999907e-10,1.809016305458818e-20
3.5999999999999907e-10,1.8420849772748807e-20
3.6099999999999906e-10,1.8748948062777445e-20
3.6199999999999906e-10,1.906002910530757e-20
3.6299999999999906e-10,1.9332152165014038e-20
3.6399999999999905e-10,1.9376721113267068e-20
3.6499999999999905e-10,1.94054039613867e-20
3.6599999999999905e-10,1.9430728945069097e-20
3.6699999999999904e-10,1.9447973269850147e-20
3.6799999999999904e-10,1.944951792580971e-20
3.6899999999999904e-10,1.9445595837342887e-20
3.6999999999999903e-10,1.944078534672495e-20
3.7099999999999903e-10,1.9444525637409762e-20
3.71999999999999e-10,1.9472222286538005e-20
3.72999999999999e-10,1.9509557270841145e-20
3.73999999999999e-10,1.9543922320985005e-20
3.74999999999999e-10,1.957184859155761e-20
3.75999999999999e-10,1.9589435818931268e-20
3.76999999999999e-10,1.9599042834772865e-20
3.77999999999999e-10,1.9608162182769988e-20
3.78999999999999e-10,1.9617594304339992e-20
3.79999999999999e-10,1.962601010900946e-20
3.80999999999999e-10,1.9632040369106066e-20
3.81999999999999e-10,1.9634308340296474e-20
3.82999999999999e-10,1.9633767362162766e-20
3.83999999999999e-10,1.962649232286847e-20
3.84999999999999e-10,1.9614459165780314e-20
3.85999999999999e-10,1.9601275118621193e-20
3.8699999999999897e-10,1.9587529609147608e-20
3.8799999999999897e-10,1.9580928189103106e-20
3.8899999999999897e-10,1.9578575647925942e-20
3.8999999999999896e-10,1.957646244030327e-20
3.9099999999999896e-10,1.9577658711959115e-20
3.9199999999999896e-10,1.9579678821197857e-20
3.9299999999999895e-10,1.9582574284708088e-20
3.9399999999999895e-10,1.9586444297309378e-20
3.9499999999999895e-10,1.9591607000291294e-20
3.9599999999999894e-10,1.9603929899855232e-20
3.9699999999999894e-10,1.962972747171824e-20
3.9799999999999894e-10,1.9658857773320017e-20
3.9899999999999893e-10,1.9650669519865836e-20
3.9999999999999893e-10,1.9587567354429877e-20
4.009999999999989e-10,1.948871066565416e-20
4.019999999999989e-10,1.9407452967290887e-20
4.029999999999989e-10,1.9375876376668903e-20
4.039999999999989e-10,1.9383827749194586e-20
4.049999999999989e-10,1.9392908266440484e-20
4.059999999999989e-10,1.9403319181678892e-20
4.069999999999989e-10,1.941098263092832e-20
4.079999999999989e-10,1.9410847300403972e-20
4.089999999999989e-10,1.9398566684060578e-20
4.099999999999989e-10,1.937241535235248e-20
4.109999999999989e-10,1.933847447607674e-20
4.119999999999989e-10,1.9301032208040486e-20
4.129999999999989e-10,1.9266808226209145e-20
4.139999999999989e-10,1.9260780109388656e-20
4.149999999999989e-10,1.9268484911476443e-20
4.1599999999999887e-10,1.9290752030232507e-20
4.1699999999999887e-10,1.9311119825423827e-20
4.1799999999999887e-10,1.931034746853412e-20
4.1899999999999886e-10,1.9261762913204632e-20
4.1999999999999886e-10,1.9228547541253914e-20
4.2099999999999886e-10,1.9221858341604753e-20
4.2199999999999885e-10,1.923695396286655e-20
4.2299999999999885e-10,1.9264293447044072e-20
4.2399999999999885e-10,1.9304866382834117e-20
4.2499999999999884e-10,1.935201996915029e-20
4.2599999999999884e-10,1.938825884776978e-20
4.2699999999999884e-10,1.9397409148748076e-20
4.2799999999999883e-10,1.9401077570033567e-20
4.2899999999999883e-10,1.94173514902555e-20
4.299999999999988e-10,1.9437728697209097e-20
4.309999999999988e-10,1.9461722608974525e-20
4.319999999999988e-10,1.9488512196956738e-20
4.329999999999988e-10,1.951672122235367e-20
4.339999999999988e-10,1.9536700758408668e-20
4.349999999999988e-10,1.9547521794388154e-20
4.359999999999988e-10,1.9547870047079812e-20
4.369999999999988e-10,1.9539652064643875e-20
4.379999999999988e-10,1.9523027217636046e-20
4.389999999999988e-10,1.9504796730073892e-20
4.399999999999988e-10,1.948797864839626e-20
4.409999999999988e-10,1.9494220516666233e-20
4.419999999999988e-10,1.9533949381008775e-20
4.429999999999988e-10,1.959761682743667e-20
4.439999999999988e-10,1.9668063497743552e-20
4.4499999999999877e-10,1.9739068615592873e-20
4.4599999999999877e-10,1.9807561220572775e-20
4.4699999999999877e-10,1.987540929003625e-20
4.4799999999999876e-10,1.9915050757843688e-20
4.4899999999999876e-10,1.9923337039518832e-20
4.4999999999999876e-10,1.99341085099238e-20
