Time (s),Current (A)
0,5.340665361741962e-19
1e-12,5.340665361741962e-19
2e-12,5.512242237265077e-19
3e-12,5.869470653881563e-19
4e-12,6.4158692779839825e-19
5e-12,7.098323002598873e-19
5.9999999999999995e-12,7.783457615893812e-19
6.999999999999999e-12,8.3228189072111045e-19
8e-12,8.660108214269728e-19
9e-12,8.832690423047862e-19
1e-11,8.843246422225552e-19
1.0999999999999999e-11,8.858661532135833e-19
1.1999999999999999e-11,8.87943841940621e-19
1.2999999999999999e-11,8.907252639461714e-19
1.3999999999999999e-11,8.943947303269882e-19
1.5e-11,8.989019744203199e-19
1.6e-11,9.043977962144198e-19
1.7e-11,9.108989512635377e-19
1.8e-11,9.187405506526802e-19
1.9e-11,9.28157172141351e-19
2e-11,9.413940599990913e-19
2.1e-11,9.656393469992816e-19
2.1999999999999998e-11,1.0137948099146558e-18
2.2999999999999998e-11,1.087452226398993e-18
2.3999999999999998e-11,1.1496991104388732e-18
2.4999999999999998e-11,1.1778149304708837e-18
2.5999999999999997e-11,1.1834615522532362e-18
2.6999999999999997e-11,1.18476848548476e-18
2.7999999999999997e-11,1.1875499074903104e-18
2.8999999999999997e-11,1.1866618631150443e-18
3e-11,1.1692360866947279e-18
3.1e-11,1.125889467849191e-18
3.2000000000000006e-11,1.0573424954111965e-18
3.300000000000001e-11,9.802334347512965e-19
3.400000000000001e-11,9.102622402020261e-19
3.5000000000000015e-11,8.5651042216705025e-19
3.600000000000002e-11,8.23284158088697e-19
3.700000000000002e-11,8.181066918253531e-19
3.8000000000000024e-11,8.195644250451295e-19
3.900000000000003e-11,8.243397580064662e-19
4.000000000000003e-11,8.326672684688674e-19
4.100000000000003e-11,8.415309566672783e-19
4.2000000000000036e-11,8.47077045124129e-19
4.300000000000004e-11,8.479818450536454e-19
4.400000000000004e-11,8.447480230833368e-19
4.5000000000000045e-11,8.418325566437838e-19
4.600000000000005e-11,8.394030012774897e-19
4.700000000000005e-11,8.374677347615796e-19
4.8000000000000054e-11,8.359346015476767e-19
4.900000000000006e-11,8.337898906036378e-19
5.000000000000006e-11,8.311341352549646e-19
5.100000000000006e-11,8.27246846668894e-19
5.2000000000000066e-11,8.233679358599486e-19
5.300000000000007e-11,8.1952253615950375e-19
5.400000000000007e-11,8.156603809048087e-19
5.5000000000000075e-11,8.117730923187381e-19
5.600000000000008e-11,8.078271592927914e-19
5.700000000000008e-11,8.038225818269687e-19
5.8000000000000084e-11,7.992399377395105e-19
5.900000000000008e-11,7.929649826727716e-19
6.000000000000008e-11,7.812193391433083e-19
6.100000000000007e-11,7.572170076797476e-19
6.200000000000007e-11,7.206647660827089e-19
6.300000000000007e-11,6.884019463737482e-19
6.400000000000006e-11,6.699708366984136e-19
6.500000000000006e-11,6.635869705290477e-19
6.600000000000006e-11,6.57487948781937e-19
6.700000000000005e-11,6.515732381315796e-19
6.800000000000005e-11,6.457674385838492e-19
6.900000000000005e-11,6.400537945844954e-19
7.000000000000004e-11,6.343820394707675e-19
7.100000000000004e-11,6.287856843511658e-19
7.200000000000004e-11,6.2294637369493485e-19
7.300000000000003e-11,6.157749964758046e-19
7.400000000000003e-11,6.066097083008882e-19
7.500000000000003e-11,5.956096869355635e-19
7.600000000000002e-11,5.826073768373275e-19
7.700000000000002e-11,5.695464222992153e-19
7.800000000000001e-11,5.584123564998882e-19
7.900000000000001e-11,5.501853793629889e-19
8.000000000000001e-11,5.42486202184974e-19
8.1e-11,5.342257139395741e-19
8.2e-11,5.255379590607914e-19
8.3e-11,5.168585819591338e-19
8.4e-11,5.086399825993596e-19
8.499999999999999e-11,5.00957560975595e-19
8.599999999999999e-11,4.943893837094759e-19
8.699999999999998e-11,4.881395619741124e-19
8.799999999999998e-11,4.824091624205084e-19
8.899999999999998e-11,4.771479183859128e-19
8.999999999999997e-11,4.723893409788264e-19
9.099999999999997e-11,4.676223857946149e-19
9.199999999999997e-11,4.6279678617052725e-19
9.299999999999996e-11,4.579376754379391e-19
9.399999999999996e-11,4.530450535968502e-19
9.499999999999996e-11,4.482529650812633e-19
9.599999999999995e-11,4.431425210349204e-19
9.699999999999995e-11,4.37001610402184e-19
9.799999999999995e-11,4.309025886550732e-19
9.899999999999994e-11,4.2466952247396e-19
9.999999999999994e-11,4.1839456740722114e-19
1.0099999999999994e-10,4.121698790032331e-19
1.0199999999999993e-10,4.060876128103727e-19
1.0299999999999993e-10,4.001058799430141e-19
1.0399999999999993e-10,3.9396496931027757e-19
1.0499999999999992e-10,3.876146142494123e-19
1.0599999999999992e-10,3.8134803695979853e-19
1.0699999999999991e-10,3.751065930015602e-19
1.0799999999999991e-10,3.6885677126619673e-19
1.0899999999999991e-10,3.623388606628284e-19
1.099999999999999e-10,3.5554448341433004e-19
1.109999999999999e-10,3.4818041732132137e-19
1.119999999999999e-10,3.3985290685892016e-19
1.129999999999999e-10,3.299503742969904e-19
1.1399999999999989e-10,3.1771881969426833e-19
1.1499999999999989e-10,3.029236652912497e-19
1.1599999999999988e-10,2.865534887887025e-19
1.1699999999999988e-10,2.70828401124792e-19
1.1799999999999988e-10,2.5783446880368107e-19
1.1899999999999987e-10,2.480157140130028e-19
1.1999999999999987e-10,2.428214921954085e-19
1.2099999999999987e-10,2.3843991475895396e-19
1.2199999999999986e-10,2.340248262139988e-19
1.2299999999999986e-10,2.295846043376682e-19
1.2399999999999986e-10,2.251946491240885e-19
1.2499999999999985e-10,2.206790272536315e-19
1.2599999999999985e-10,2.1608800538904815e-19
1.2699999999999985e-10,2.1150536130158996e-19
1.2799999999999984e-10,2.069310949912569e-19
1.2899999999999984e-10,2.024573620064257e-19
1.2999999999999984e-10,1.9819307344972327e-19
1.3099999999999983e-10,1.9405445154989814e-19
1.3199999999999983e-10,1.911054740018446e-19
1.3299999999999983e-10,1.9008338519257604e-19
1.3399999999999982e-10,1.915076073038519e-19
1.3499999999999982e-10,1.9329207383150929e-19
1.3599999999999981e-10,1.9193487393723465e-19
1.369999999999998e-10,1.879051631400365e-19
1.379999999999998e-10,1.8368276346895984e-19
1.389999999999998e-10,1.7953576379200954e-19
1.399999999999998e-10,1.7544740855493532e-19
1.409999999999998e-10,1.7144283108911261e-19
1.419999999999998e-10,1.6755554250304205e-19
1.429999999999998e-10,1.638022983509739e-19
1.439999999999998e-10,1.6013283197015727e-19
1.4499999999999978e-10,1.5653038780634188e-19
1.4599999999999978e-10,1.5312063251640496e-19
1.4699999999999978e-10,1.4997896609447294e-19
1.4799999999999977e-10,1.4710538854054576e-19
1.4899999999999977e-10,1.443155887578701e-19
1.4999999999999977e-10,1.4157605563794538e-19
1.5099999999999976e-10,1.3852654476439e-19
1.5199999999999976e-10,1.35275967239831e-19
1.5299999999999976e-10,1.3213430081789895e-19
1.5399999999999975e-10,1.2910992327571905e-19
1.5499999999999975e-10,1.2631174571591824e-19
1.5599999999999975e-10,1.2404136811500202e-19
1.5699999999999974e-10,1.2279307932335436e-19
1.5799999999999974e-10,1.2262552378085132e-19
1.5899999999999974e-10,1.2200556827359006e-19
1.5999999999999973e-10,1.2015407952893145e-19
1.6099999999999973e-10,1.1779154637963856e-19
1.6199999999999972e-10,1.151944354708414e-19
1.6299999999999972e-10,1.123962579110406e-19
1.6399999999999972e-10,1.0966510256824102e-19
1.6499999999999971e-10,1.0698421388819234e-19
1.659999999999997e-10,1.0433683631664428e-19
1.669999999999997e-10,1.0175648096209743e-19
1.679999999999997e-10,9.921801449317634e-20
1.689999999999997e-10,9.675494801838162e-20
1.699999999999997e-10,9.431701487496236e-20
1.709999999999997e-10,9.18958372857934e-20
1.719999999999997e-10,8.94662819194993e-20
1.7299999999999969e-10,8.701159322182973e-20
1.7399999999999968e-10,8.457366007841047e-20
1.7499999999999968e-10,8.21357269349912e-20
1.7599999999999968e-10,7.9756438231448e-20
1.7699999999999967e-10,7.739390508215511e-20
1.7799999999999967e-10,7.510677192698859e-20
1.7899999999999967e-10,7.290341654307359e-20
1.7999999999999966e-10,7.088437225591193e-20
1.8099999999999966e-10,6.901612795700301e-20
1.8199999999999966e-10,6.719815032084501e-20
1.8299999999999965e-10,6.543043934743791e-20
1.8399999999999965e-10,6.370461725965658e-20
1.8499999999999965e-10,6.202906183462616e-20
1.8599999999999964e-10,6.03953952952215e-20
1.8699999999999964e-10,5.87868620871923e-20
1.8799999999999964e-10,5.723697331903915e-20
1.8899999999999963e-10,5.572897343651179e-20
1.8999999999999963e-10,5.427124021673531e-20
1.9099999999999962e-10,5.286377365970976e-20
1.9199999999999962e-10,5.157359598243634e-20
1.9299999999999962e-10,5.0367196076414437e-20
1.9399999999999961e-10,4.918592950176799e-20
1.949999999999996e-10,4.798790737287124e-20
1.959999999999996e-10,4.6739618581223574e-20
1.969999999999996e-10,4.547457423532561e-20
1.979999999999996e-10,4.4234663220803097e-20
1.989999999999996e-10,4.30282633147812e-20
1.999999999999996e-10,4.188888562576051e-20
2.009999999999996e-10,4.0833285707991344e-20
2.0199999999999959e-10,3.9928485778474915e-20
2.0299999999999958e-10,3.9224752499962143e-20
2.0399999999999958e-10,3.857128588420028e-20
2.0499999999999958e-10,3.771675261743476e-20
2.0599999999999957e-10,3.671979713954166e-20
2.0699999999999957e-10,3.571446388452341e-20
2.0799999999999957e-10,3.4734263960880617e-20
2.0899999999999956e-10,3.3779197368613275e-20
2.0999999999999956e-10,3.2882775216222e-20
2.1099999999999956e-10,3.200310861808103e-20
2.1199999999999955e-10,3.1223975345441886e-20
2.1299999999999955e-10,3.0595642061055474e-20
2.1399999999999955e-10,3.01013532106715e-20
2.1499999999999954e-10,2.9590308806037225e-20
2.1599999999999954e-10,2.886981997327414e-20
2.1699999999999953e-10,2.7998531152258325e-20
2.1799999999999953e-10,2.719426454824372e-20
2.1899999999999953e-10,2.6373242389978817e-20
2.1999999999999952e-10,2.558573134021452e-20
2.2099999999999952e-10,2.4881998061701742e-20
2.2199999999999952e-10,2.4169887006063814e-20
2.2299999999999951e-10,2.3491287058926495e-20
2.239999999999995e-10,2.2821064888914326e-20
2.249999999999995e-10,2.216759827315246e-20
2.259999999999995e-10,2.1530887211640902e-20
2.269999999999995e-10,2.0944442812880256e-20
2.279999999999995e-10,2.0341242859869303e-20
2.289999999999995e-10,1.977155401535896e-20
2.299999999999995e-10,1.9193487393723467e-20
2.3099999999999949e-10,1.8640554103463427e-20
2.3199999999999948e-10,1.8087620813203387e-20
2.329999999999995e-10,1.7526309745818197e-20
2.339999999999995e-10,1.6990132009808463e-20
2.349999999999995e-10,1.6504220936549642e-20
2.359999999999995e-10,1.602668764041597e-20
2.369999999999995e-10,1.5565909898532607e-20
2.379999999999995e-10,1.5147021042275e-20
2.389999999999995e-10,1.4728132186017394e-20
2.399999999999995e-10,1.430924332975979e-20
2.409999999999995e-10,1.391548780487764e-20
2.419999999999995e-10,1.3530110057120645e-20
2.4299999999999947e-10,1.3161487863613952e-20
2.4399999999999947e-10,1.2801243447232412e-20
2.4499999999999946e-10,1.243262125372572e-20
2.4599999999999946e-10,1.2131021277220243e-20
2.4699999999999946e-10,1.1804287969339312e-20
2.4799999999999945e-10,1.1477554661458379e-20
2.4899999999999945e-10,1.120108801632836e-20
2.4999999999999945e-10,1.0907865816948036e-20
2.5099999999999944e-10,1.0631399171818018e-20
2.5199999999999944e-10,1.0371688080938302e-20
2.5299999999999944e-10,1.0095221435808282e-20
2.5399999999999943e-10,9.852265899178872e-21
2.5499999999999943e-10,9.626065916799765e-21
2.5599999999999943e-10,9.433377042921267e-21
2.569999999999994e-10,9.223932614792464e-21
2.579999999999994e-10,9.064754849414575e-21
2.589999999999994e-10,8.905577084036685e-21
2.599999999999994e-10,8.738021541533642e-21
2.609999999999994e-10,8.578843776155752e-21
2.619999999999994e-10,8.461554896403624e-21
2.629999999999994e-10,8.444799342153319e-21
2.639999999999994e-10,8.520199336279688e-21
2.649999999999994e-10,8.880443752661229e-21
2.659999999999994e-10,9.517154814172788e-21
2.669999999999994e-10,1.0472221406440128e-20
2.679999999999994e-10,1.1444043552957771e-20
2.689999999999994e-10,1.2189665717096309e-20
2.699999999999994e-10,1.2491265693601784e-20
2.709999999999994e-10,1.2399110145225111e-20
2.7199999999999937e-10,1.2281821265472981e-20
2.7299999999999937e-10,1.2172910162846004e-20
2.7399999999999936e-10,1.208075461446933e-20
2.7499999999999936e-10,1.2030487951718418e-20
2.7599999999999936e-10,1.1971843511842353e-20
2.7699999999999935e-10,1.1929954626216594e-20
2.7799999999999935e-10,1.1904821294841137e-20
2.7899999999999935e-10,1.1821043523589615e-20
2.7999999999999934e-10,1.1737265752338094e-20
2.8099999999999934e-10,1.1661865758211725e-20
2.8199999999999934e-10,1.159484354121051e-20
2.8299999999999933e-10,1.1536199101334444e-20
2.8399999999999933e-10,1.1511065769958989e-20
2.8499999999999933e-10,1.1494310215708684e-20
2.859999999999993e-10,1.1460799107208076e-20
2.869999999999993e-10,1.1452421330082923e-20
2.879999999999993e-10,1.1444043552957771e-20
2.889999999999993e-10,1.1452421330082923e-20
2.899999999999993e-10,1.1393776890206859e-20
2.909999999999993e-10,1.1377021335956554e-20
2.919999999999993e-10,1.1368643558831402e-20
2.929999999999993e-10,1.1427287998707466e-20
2.939999999999993e-10,1.1527821324209292e-20
2.949999999999993e-10,1.1611599095460813e-20
2.959999999999993e-10,1.1745643529463248e-20
2.969999999999993e-10,1.1904821294841137e-20
2.979999999999993e-10,1.2072376837344179e-20
2.989999999999993e-10,1.227344348834783e-20
2.999999999999993e-10,1.2499643470726935e-20
3.0099999999999927e-10,1.2667199013229978e-20
3.0199999999999927e-10,1.2767732338731804e-20
3.0299999999999926e-10,1.2767732338731804e-20
3.0399999999999926e-10,1.279286567010726e-20
3.0499999999999926e-10,1.283475455573302e-20
3.0599999999999925e-10,1.2893398995609085e-20
3.0699999999999925e-10,1.2935287881234845e-20
3.0799999999999925e-10,1.2960421212610301e-20
3.0899999999999924e-10,1.2977176766860606e-20
3.0999999999999924e-10,1.2968798989735453e-20
3.1099999999999924e-10,1.295204343548515e-20
3.1199999999999923e-10,1.2901776772734237e-20
3.1299999999999923e-10,1.2843132332858173e-20
3.1399999999999923e-10,1.275935456160665e-20
3.149999999999992e-10,1.2717465675980891e-20
3.159999999999992e-10,1.2700710121730586e-20
3.169999999999992e-10,1.2683954567480283e-20
3.179999999999992e-10,1.2700710121730586e-20
3.189999999999992e-10,1.2700710121730586e-20
3.199999999999992e-10,1.2667199013229978e-20
3.209999999999992e-10,1.2642065681854522e-20
3.219999999999992e-10,1.2575043464853304e-20
3.229999999999992e-10,1.2533154579227545e-20
3.239999999999992e-10,1.2482887916476632e-20
3.249999999999992e-10,1.2499643470726935e-20
3.259999999999992e-10,1.2499643470726935e-20
3.269999999999992e-10,1.251639902497724e-20
3.279999999999992e-10,1.2549910133477848e-20
3.2899999999999917e-10,1.2566665687728153e-20
3.2999999999999917e-10,1.2583421241978458e-20
3.3099999999999917e-10,1.2583421241978458e-20
3.3199999999999916e-10,1.2583421241978458e-20
3.3299999999999916e-10,1.2549910133477848e-20
3.3399999999999916e-10,1.2482887916476632e-20
3.3499999999999915e-10,1.2382354590974807e-20
3.3599999999999915e-10,1.2265065711222676e-20
3.3699999999999915e-10,1.21561546085957e-20
3.3799999999999914e-10,1.2097510168719635e-20
3.3899999999999914e-10,1.2105887945844787e-20
3.3999999999999914e-10,1.2097510168719635e-20
3.4099999999999913e-10,1.2089132391594483e-20
3.4199999999999913e-10,1.2089132391594483e-20
3.429999999999991e-10,1.2097510168719635e-20
3.439999999999991e-10,1.2089132391594483e-20
3.449999999999991e-10,1.2097510168719635e-20
3.459999999999991e-10,1.2105887945844787e-20
3.469999999999991e-10,1.2122643500095091e-20
3.479999999999991e-10,1.21561546085957e-20
3.489999999999991e-10,1.219804349422146e-20
3.499999999999991e-10,1.223993237984722e-20
3.509999999999991e-10,1.2248310156972373e-20
3.519999999999991e-10,1.2265065711222676e-20
3.529999999999991e-10,1.2298576819723286e-20
3.539999999999991e-10,1.2332087928223894e-20
3.549999999999991e-10,1.2390732368099958e-20
3.559999999999991e-10,1.2424243476600568e-20
3.569999999999991e-10,1.2424243476600568e-20
3.5799999999999907e-10,1.2466132362226327e-20
3.5899999999999907e-10,1.2482887916476632e-20
3.5999999999999907e-10,1.2466132362226327e-20
3.6099999999999906e-10,1.2482887916476632e-20
3.6199999999999906e-10,1.2491265693601784e-20
3.6299999999999906e-10,1.2491265693601784e-20
3.6399999999999905e-10,1.2449376807976024e-20
3.6499999999999905e-10,1.2449376807976024e-20
3.6599999999999905e-10,1.2449376807976024e-20
3.6699999999999904e-10,1.2440999030850871e-20
3.6799999999999904e-10,1.2440999030850871e-20
3.6899999999999904e-10,1.2440999030850871e-20
3.6999999999999903e-10,1.243262125372572e-20
3.7099999999999903e-10,1.2449376807976024e-20
3.71999999999999e-10,1.2474510139351479e-20
3.72999999999999e-10,1.2474510139351479e-20
3.73999999999999e-10,1.2474510139351479e-20
3.74999999999999e-10,1.2482887916476632e-20
3.75999999999999e-10,1.251639902497724e-20
3.76999999999999e-10,1.2541532356352696e-20
3.77999999999999e-10,1.2566665687728153e-20
3.78999999999999e-10,1.2591799019103609e-20
3.79999999999999e-10,1.263368790472937e-20
3.80999999999999e-10,1.267557679035513e-20
3.81999999999999e-10,1.2692332344605435e-20
3.82999999999999e-10,1.2717465675980891e-20
3.83999999999999e-10,1.2734221230231194e-20
3.84999999999999e-10,1.2767732338731804e-20
3.85999999999999e-10,1.279286567010726e-20
3.8699999999999897e-10,1.2817999001482716e-20
3.8799999999999897e-10,1.2851510109983324e-20
3.8899999999999897e-10,1.2859887887108476e-20
3.8999999999999896e-10,1.2901776772734237e-20
3.9099999999999896e-10,1.2935287881234845e-20
3.9199999999999896e-10,1.2935287881234845e-20
3.9299999999999895e-10,1.2943665658359997e-20
3.9399999999999895e-10,1.295204343548515e-20
3.9499999999999895e-10,1.295204343548515e-20
3.9599999999999894e-10,1.2968798989735453e-20
3.9699999999999894e-10,1.2968798989735453e-20
3.9799999999999894e-10,1.2977176766860606e-20
3.9899999999999893e-10,1.299393232111091e-20
3.9999999999999893e-10,1.303582120673667e-20
4.009999999999989e-10,1.3069332315237278e-20
4.019999999999989e-10,1.3136354532238496e-20
4.029999999999989e-10,1.3161487863613952e-20
4.039999999999989e-10,1.319499897211456e-20
4.049999999999989e-10,1.3220132303490017e-20
4.059999999999989e-10,1.3220132303490017e-20
4.069999999999989e-10,1.3236887857740321e-20
4.079999999999989e-10,1.3262021189115778e-20
4.089999999999989e-10,1.327039896624093e-20
4.099999999999989e-10,1.3278776743366081e-20
4.109999999999989e-10,1.3303910074741537e-20
4.119999999999989e-10,1.331228785186669e-20
4.129999999999989e-10,1.3345798960367298e-20
4.139999999999989e-10,1.335417673749245e-20
4.149999999999989e-10,1.3370932291742755e-20
4.1599999999999887e-10,1.3396065623118211e-20
4.1699999999999887e-10,1.3404443400243363e-20
4.1799999999999887e-10,1.343795450874397e-20
4.1899999999999886e-10,1.3454710062994275e-20
4.1999999999999886e-10,1.3488221171494883e-20
4.2099999999999886e-10,1.3530110057120645e-20
4.2199999999999885e-10,1.3530110057120645e-20
4.2299999999999885e-10,1.3563621165621254e-20
4.2399999999999885e-10,1.359713227412186e-20
4.2499999999999884e-10,1.363064338262247e-20
4.2599999999999884e-10,1.367253226824823e-20
4.2699999999999884e-10,1.3689287822498536e-20
4.2799999999999883e-10,1.37479322623746e-20
4.2899999999999883e-10,1.379819892512551e-20
4.299999999999988e-10,1.387359891925188e-20
4.309999999999988e-10,1.3974132244753706e-20
4.319999999999988e-10,1.407466557025553e-20
4.329999999999988e-10,1.4141687787256747e-20
4.339999999999988e-10,1.4158443341507054e-20
4.349999999999988e-10,1.419195445000766e-20
4.359999999999988e-10,1.4200332227132813e-20
4.369999999999988e-10,1.4208710004257966e-20
4.379999999999988e-10,1.4208710004257966e-20
4.389999999999988e-10,1.423384333563342e-20
4.399999999999988e-10,1.4250598889883726e-20
4.409999999999988e-10,1.4284109998384332e-20
4.419999999999988e-10,1.4325998884010095e-20
4.429999999999988e-10,1.4367887769635855e-20
4.439999999999988e-10,1.4384643323886158e-20
4.4499999999999877e-10,1.439302110101131e-20
4.4599999999999877e-10,1.4409776655261614e-20
4.4699999999999877e-10,1.439302110101131e-20
4.4799999999999876e-10,1.4418154432386767e-20
4.4899999999999876e-10,1.4443287763762224e-20
4.4999999999999876e-10,1.4476798872262833e-20
4.5099999999999875e-10,1.457733219776466e-20
