Time (s),Current (A)
0,-4.250968872680818e-12
1e-12,-4.250968872680818e-12
2e-12,-4.2401692479286384e-12
3e-12,-4.228036950028984e-12
4e-12,-4.22835897909772e-12
5e-12,-4.249163794542678e-12
5.9999999999999995e-12,-4.280088863919893e-12
6.999999999999999e-12,-4.289940787553365e-12
8e-12,-4.240404605508393e-12
9e-12,-4.119741746389584e-12
1e-11,-3.948507608660881e-12
1.0999999999999999e-11,-3.75060023054748e-12
1.1999999999999999e-11,-3.555893715190333e-12
1.2999999999999999e-11,-3.3959765643169295e-12
1.3999999999999999e-11,-3.271921064684762e-12
1.5e-11,-3.18528689258442e-12
1.6e-11,-3.149852203745969e-12
1.7e-11,-3.2077146411785515e-12
1.8e-11,-3.4151941167078896e-12
1.9e-11,-3.693646495513532e-12
2e-11,-3.827510344368567e-12
2.1e-11,-3.80393629747182e-12
2.1999999999999998e-11,-3.698420105434203e-12
2.2999999999999998e-11,-3.5686307637025214e-12
2.3999999999999998e-11,-3.4125854672877245e-12
2.4999999999999998e-11,-3.2297162129708147e-12
2.5999999999999997e-11,-3.0307770305243245e-12
2.6999999999999997e-11,-2.8426136237448494e-12
2.7999999999999997e-11,-2.7004734555443595e-12
2.8999999999999997e-11,-2.6349527787071062e-12
3e-11,-2.6793220460141796e-12
3.1e-11,-2.8666335643408605e-12
3.2000000000000006e-11,-3.117112594469661e-12
3.300000000000001e-11,-3.2749906209986224e-12
3.400000000000001e-11,-3.348304647076465e-12
3.5000000000000015e-11,-3.3998361672818237e-12
3.600000000000002e-11,-3.4888852928526193e-12
3.700000000000002e-11,-3.6252498346226284e-12
3.8000000000000024e-11,-3.743159472422801e-12
3.900000000000003e-11,-3.791332484251164e-12
4.000000000000003e-11,-3.788533128105677e-12
4.100000000000003e-11,-3.8041642090173105e-12
4.2000000000000036e-11,-3.87578961176203e-12
4.300000000000004e-11,-4.022933804876041e-12
4.400000000000004e-11,-4.186255108501463e-12
4.5000000000000045e-11,-4.280185772047188e-12
4.600000000000005e-11,-4.3040994119051245e-12
4.700000000000005e-11,-4.288534888729773e-12
4.8000000000000054e-11,-4.27857306169624e-12
4.900000000000006e-11,-4.2780653413254804e-12
5.000000000000006e-11,-4.289124099973207e-12
5.100000000000006e-11,-4.3182384375531664e-12
5.2000000000000066e-11,-4.368290602350522e-12
5.300000000000007e-11,-4.440086631763283e-12
5.400000000000007e-11,-4.534038527545221e-12
5.5000000000000075e-11,-4.648458254499923e-12
5.600000000000008e-11,-4.7971842296748035e-12
5.700000000000008e-11,-4.981316059674781e-12
5.8000000000000084e-11,-5.209963571924249e-12
5.900000000000008e-11,-5.47769860178108e-12
6.000000000000008e-11,-5.771201254371778e-12
6.100000000000007e-11,-6.0838784238349674e-12
6.200000000000007e-11,-6.4112111402556055e-12
6.300000000000007e-11,-6.784905712925873e-12
6.400000000000006e-11,-7.219688049983293e-12
6.500000000000006e-11,-7.699912339368047e-12
6.600000000000006e-11,-8.124648073224226e-12
6.700000000000005e-11,-8.447373953938446e-12
6.800000000000005e-11,-8.690377391212304e-12
6.900000000000005e-11,-8.938893389380556e-12
7.000000000000004e-11,-9.2702270553209e-12
7.100000000000004e-11,-9.890425396054572e-12
7.200000000000004e-11,-1.1320259402405576e-11
7.300000000000003e-11,-1.50213557332145e-11
7.400000000000003e-11,-2.466726285842691e-11
7.500000000000003e-11,-4.6262129324483895e-11
7.600000000000002e-11,-7.830992315496548e-11
7.700000000000002e-11,-1.0336315522001638e-10
7.800000000000001e-11,-1.118487371489719e-10
7.900000000000001e-11,-1.1193140983453552e-10
8.000000000000001e-11,-1.1196113529669164e-10
8.1e-11,-1.1200338813616217e-10
8.2e-11,-1.1205624059596897e-10
8.3e-11,-1.1214716928743264e-10
8.4e-11,-1.12367556870402e-10
8.499999999999999e-11,-1.1278655129588369e-10
8.599999999999999e-11,-1.132058163403891e-10
8.699999999999998e-11,-1.1355537692167824e-10
8.799999999999998e-11,-1.1389160471196374e-10
8.899999999999998e-11,-1.1426257824463606e-10
8.999999999999997e-11,-1.1474792201854321e-10
9.099999999999997e-11,-1.1530255921511198e-10
9.199999999999997e-11,-1.1585623502412266e-10
9.299999999999996e-11,-1.163531944561918e-10
9.399999999999996e-11,-1.1677014324841618e-10
9.499999999999996e-11,-1.1722730172806652e-10
9.599999999999995e-11,-1.1778974157602341e-10
9.699999999999995e-11,-1.1821731911928804e-10
9.799999999999995e-11,-1.1832830790261615e-10
9.899999999999994e-11,-1.1817389794819565e-10
9.999999999999994e-11,-1.1793235551217837e-10
1.0099999999999994e-10,-1.177901387210126e-10
1.0199999999999993e-10,-1.1754791868651092e-10
1.0299999999999993e-10,-1.1726927595425406e-10
1.0399999999999993e-10,-1.1690314977021685e-10
1.0499999999999992e-10,-1.1646839096789363e-10
1.0599999999999992e-10,-1.1599990563977251e-10
1.0699999999999991e-10,-1.157941885966138e-10
1.0799999999999991e-10,-1.1564091038466108e-10
1.0899999999999991e-10,-1.1550970115030254e-10
1.099999999999999e-10,-1.154336133500238e-10
1.109999999999999e-10,-1.1539609966217397e-10
1.119999999999999e-10,-1.1539796448284398e-10
1.129999999999999e-10,-1.1545956802874933e-10
1.1399999999999989e-10,-1.1560800949340663e-10
1.1499999999999989e-10,-1.1582062760797234e-10
1.1599999999999988e-10,-1.1600877284801127e-10
1.1699999999999988e-10,-1.1607724211175758e-10
1.1799999999999988e-10,-1.1593776284586016e-10
1.1899999999999987e-10,-1.1541157319322285e-10
1.1999999999999987e-10,-1.1465130344225504e-10
1.2099999999999987e-10,-1.1377985001596445e-10
1.2199999999999986e-10,-1.13004001487e-10
1.2299999999999986e-10,-1.1257052433704429e-10
1.2399999999999986e-10,-1.1251737618329224e-10
1.2499999999999985e-10,-1.1292609349522399e-10
1.2599999999999985e-10,-1.134508944907041e-10
1.2699999999999985e-10,-1.1393471550988818e-10
1.2799999999999984e-10,-1.142185095310049e-10
1.2899999999999984e-10,-1.1432282451275055e-10
1.2999999999999984e-10,-1.1447295943300932e-10
1.3099999999999983e-10,-1.1460395318065228e-10
1.3199999999999983e-10,-1.1459228660812484e-10
1.3299999999999983e-10,-1.139527969071356e-10
1.3399999999999982e-10,-1.1179294526539949e-10
1.3499999999999982e-10,-1.0983424865914335e-10
1.3599999999999981e-10,-1.0941527422885206e-10
1.369999999999998e-10,-1.0939792338243257e-10
1.379999999999998e-10,-1.0936048190520738e-10
1.389999999999998e-10,-1.0930197680627979e-10
1.399999999999998e-10,-1.092409802753326e-10
1.409999999999998e-10,-1.0920921228509199e-10
1.419999999999998e-10,-1.0924685890641555e-10
1.429999999999998e-10,-1.0940647166788129e-10
1.439999999999998e-10,-1.0961463503838099e-10
1.4499999999999978e-10,-1.0999595339272564e-10
1.4599999999999978e-10,-1.1060746239013723e-10
1.4699999999999978e-10,-1.1078337371523527e-10
1.4799999999999977e-10,-1.1027719017473531e-10
1.4899999999999977e-10,-1.0962854024114076e-10
1.4999999999999977e-10,-1.0910709222978168e-10
1.5099999999999976e-10,-1.0872425237051075e-10
1.5199999999999976e-10,-1.0856391646236246e-10
1.5299999999999976e-10,-1.0854815674658102e-10
1.5399999999999975e-10,-1.0849754614764495e-10
1.5499999999999975e-10,-1.0842047752351599e-10
1.5599999999999975e-10,-1.0831682992913516e-10
1.5699999999999974e-10,-1.0820644136079159e-10
1.5799999999999974e-10,-1.0814064929593446e-10
1.5899999999999974e-10,-1.0816272256021936e-10
1.5999999999999973e-10,-1.0819095490837869e-10
1.6099999999999973e-10,-1.0822825457074808e-10
1.6199999999999972e-10,-1.0828706894310958e-10
1.6299999999999972e-10,-1.0838918918646748e-10
1.6399999999999972e-10,-1.0857920753432276e-10
1.6499999999999971e-10,-1.088484987723888e-10
1.659999999999997e-10,-1.0912011161883311e-10
1.669999999999997e-10,-1.0932791563359753e-10
1.679999999999997e-10,-1.0957464669073758e-10
1.689999999999997e-10,-1.0993507249215992e-10
1.699999999999997e-10,-1.1051228919537692e-10
1.709999999999997e-10,-1.1140355345845985e-10
1.719999999999997e-10,-1.1275436813373843e-10
1.7299999999999969e-10,-1.1479917099838258e-10
1.7399999999999968e-10,-1.1817809697525924e-10
1.7499999999999968e-10,-1.241063570911036e-10
1.7599999999999968e-10,-1.3427841929135377e-10
1.7699999999999967e-10,-1.4975542894306172e-10
1.7799999999999967e-10,-1.687354390899217e-10
1.7899999999999967e-10,-1.8631527215997386e-10
1.7999999999999966e-10,-1.9856449933837703e-10
1.8099999999999966e-10,-2.002304968702948e-10
1.8199999999999966e-10,-2.0003580364569463e-10
1.8299999999999965e-10,-1.9990041195430924e-10
1.8399999999999965e-10,-2.0010178750640485e-10
1.8499999999999965e-10,-2.004758798698569e-10
1.8599999999999964e-10,-2.0095979667630546e-10
1.8699999999999964e-10,-2.0178849227473115e-10
1.8799999999999964e-10,-2.0308695304387804e-10
1.8899999999999963e-10,-2.049123609109811e-10
1.8999999999999963e-10,-2.068637474311729e-10
1.9099999999999962e-10,-2.0763019710523308e-10
1.9199999999999962e-10,-2.0859754534006792e-10
1.9299999999999962e-10,-2.0970314985778804e-10
1.9399999999999961e-10,-2.1092443694561487e-10
1.949999999999996e-10,-2.1236425728473475e-10
1.959999999999996e-10,-2.1411840703261834e-10
1.969999999999996e-10,-2.1662092825253185e-10
1.979999999999996e-10,-2.2025056866356347e-10
1.989999999999996e-10,-2.251659735396608e-10
1.999999999999996e-10,-2.3107437784402376e-10
2.009999999999996e-10,-2.3770678737652805e-10
2.0199999999999959e-10,-2.445773278945165e-10
2.0299999999999958e-10,-2.5068091662341004e-10
2.0399999999999958e-10,-2.5414573417371245e-10
2.0499999999999958e-10,-2.5593088414712377e-10
2.0599999999999957e-10,-2.573799787892213e-10
2.0699999999999957e-10,-2.5789028018596006e-10
2.0799999999999957e-10,-2.578696687536051e-10
2.0899999999999956e-10,-2.579449391578286e-10
2.0999999999999956e-10,-2.581761452875808e-10
2.1099999999999956e-10,-2.5865593292149137e-10
2.1199999999999955e-10,-2.5947383773764053e-10
2.1299999999999955e-10,-2.606510275743459e-10
2.1399999999999955e-10,-2.621342347101868e-10
2.1499999999999954e-10,-2.63699815906932e-10
2.1599999999999954e-10,-2.6501859777567954e-10
2.1699999999999953e-10,-2.6608691172566026e-10
2.1799999999999953e-10,-2.669341266823333e-10
2.1899999999999953e-10,-2.6765736297657594e-10
2.1999999999999952e-10,-2.6842502077435357e-10
2.2099999999999952e-10,-2.6917116027179243e-10
2.2199999999999952e-10,-2.6982035167258336e-10
2.2299999999999951e-10,-2.70308939200701e-10
2.239999999999995e-10,-2.6990288093197657e-10
2.249999999999995e-10,-2.6925985235513433e-10
2.259999999999995e-10,-2.685080134634405e-10
2.269999999999995e-10,-2.6762561965402986e-10
2.279999999999995e-10,-2.666960409282668e-10
2.289999999999995e-10,-2.6572062436435035e-10
2.299999999999995e-10,-2.646924537787041e-10
2.3099999999999949e-10,-2.63625689792858e-10
2.3199999999999948e-10,-2.625119144041754e-10
2.329999999999995e-10,-2.61348017900819e-10
2.339999999999995e-10,-2.601337017791381e-10
2.349999999999995e-10,-2.588870042249452e-10
2.359999999999995e-10,-2.576585132547104e-10
2.369999999999995e-10,-2.564920274475449e-10
2.379999999999995e-10,-2.5532536001077454e-10
2.389999999999995e-10,-2.5400773659588103e-10
2.399999999999995e-10,-2.52454444849557e-10
2.409999999999995e-10,-2.518218276399253e-10
2.419999999999995e-10,-2.512666130035434e-10
2.4299999999999947e-10,-2.5105042225307893e-10
2.4399999999999947e-10,-2.513009178235369e-10
2.4499999999999946e-10,-2.516189265175033e-10
2.4599999999999946e-10,-2.513319492810827e-10
2.4699999999999946e-10,-2.500865430227992e-10
2.4799999999999945e-10,-2.485175269540709e-10
2.4899999999999945e-10,-2.468935980440229e-10
2.4999999999999945e-10,-2.45168741560737e-10
2.5099999999999944e-10,-2.434737572081952e-10
2.5199999999999944e-10,-2.419517665472826e-10
2.5299999999999944e-10,-2.42431114798384e-10
2.5399999999999943e-10,-2.4364264081338745e-10
2.5499999999999943e-10,-2.448201687492963e-10
2.5599999999999943e-10,-2.4545510936950017e-10
2.569999999999994e-10,-2.457156995454765e-10
2.579999999999994e-10,-2.4578456809919106e-10
2.589999999999994e-10,-2.458994324336049e-10
2.599999999999994e-10,-2.460649014472845e-10
2.609999999999994e-10,-2.4627964088614567e-10
2.619999999999994e-10,-2.4655986385097674e-10
2.629999999999994e-10,-2.468849641932701e-10
2.639999999999994e-10,-2.4726956660620514e-10
2.649999999999994e-10,-2.476732352287634e-10
2.659999999999994e-10,-2.479925291529275e-10
2.669999999999994e-10,-2.482235110992618e-10
2.679999999999994e-10,-2.484955082980307e-10
2.689999999999994e-10,-2.489324586976784e-10
2.699999999999994e-10,-2.4968137381132325e-10
2.709999999999994e-10,-2.509480953080934e-10
2.7199999999999937e-10,-2.52951496305258e-10
2.7299999999999937e-10,-2.5587432896531634e-10
2.7399999999999936e-10,-2.597397183990091e-10
2.7499999999999936e-10,-2.630110799761837e-10
2.7599999999999936e-10,-2.6569946508941116e-10
2.7699999999999935e-10,-2.6833797205764303e-10
2.7799999999999935e-10,-2.706957027837788e-10
2.7899999999999935e-10,-2.7224208005014735e-10
2.7999999999999934e-10,-2.738386944386717e-10
2.8099999999999934e-10,-2.755989753433778e-10
2.8199999999999934e-10,-2.7732485330178403e-10
2.8299999999999933e-10,-2.78514321188599e-10
2.8399999999999933e-10,-2.7912693793119033e-10
2.8499999999999933e-10,-2.7914670091076866e-10
2.859999999999993e-10,-2.790683176543148e-10
2.869999999999993e-10,-2.7909756396108634e-10
2.879999999999993e-10,-2.792909881573557e-10
2.889999999999993e-10,-2.7956779181101995e-10
2.899999999999993e-10,-2.797622497829972e-10
2.909999999999993e-10,-2.797379858337612e-10
2.919999999999993e-10,-2.795371599823738e-10
2.929999999999993e-10,-2.7946466084493275e-10
2.939999999999993e-10,-2.7954763204624447e-10
2.949999999999993e-10,-2.797535910555076e-10
2.959999999999993e-10,-2.8023284273748006e-10
2.969999999999993e-10,-2.808368427953337e-10
2.979999999999993e-10,-2.8135805049875155e-10
2.989999999999993e-10,-2.81485338833033e-10
2.999999999999993e-10,-2.8177724896464324e-10
3.0099999999999927e-10,-2.8232228379954536e-10
3.0199999999999927e-10,-2.8312375600878437e-10
3.0299999999999926e-10,-2.841160637972268e-10
3.0399999999999926e-10,-2.85174221335694e-10
3.0499999999999926e-10,-2.862217067441304e-10
3.0599999999999925e-10,-2.873266353770572e-10
3.0699999999999925e-10,-2.884552199877375e-10
3.0799999999999925e-10,-2.895204714982758e-10
3.0899999999999924e-10,-2.9043800174794406e-10
3.0999999999999924e-10,-2.912043593338802e-10
3.1099999999999924e-10,-2.9176589404391454e-10
3.1199999999999923e-10,-2.9268337943936617e-10
3.1299999999999923e-10,-2.939472641524558e-10
3.1399999999999923e-10,-2.9539185921855567e-10
3.149999999999992e-10,-2.966530269936416e-10
3.159999999999992e-10,-2.976294170175935e-10
3.169999999999992e-10,-2.983726705542693e-10
3.179999999999992e-10,-2.9886502594596115e-10
3.189999999999992e-10,-2.993536493709939e-10
3.199999999999992e-10,-2.9991377249371074e-10
3.209999999999992e-10,-3.004133953918e-10
3.219999999999992e-10,-3.007548525162729e-10
3.229999999999992e-10,-3.011765453086895e-10
3.239999999999992e-10,-3.017009681579347e-10
3.249999999999992e-10,-3.0224921733696125e-10
3.259999999999992e-10,-3.026855965360281e-10
3.269999999999992e-10,-3.0308257651560415e-10
3.279999999999992e-10,-3.0342756771325205e-10
3.2899999999999917e-10,-3.0378563497328453e-10
3.2999999999999917e-10,-3.0418196580892654e-10
3.3099999999999917e-10,-3.045778371990607e-10
3.3199999999999916e-10,-3.048348119336066e-10
3.3299999999999916e-10,-3.051352332819005e-10
3.3399999999999916e-10,-3.054806403127277e-10
3.3499999999999915e-10,-3.0589052562103617e-10
3.3599999999999915e-10,-3.063602262598011e-10
3.3699999999999915e-10,-3.068312549620092e-10
3.3799999999999914e-10,-3.072926229423018e-10
3.3899999999999914e-10,-3.075392349592548e-10
3.3999999999999914e-10,-3.0775330666883723e-10
3.4099999999999913e-10,-3.0800396871690264e-10
3.4199999999999913e-10,-3.082553248325202e-10
3.429999999999991e-10,-3.0828807364676187e-10
3.439999999999991e-10,-3.0832728942290926e-10
3.449999999999991e-10,-3.0837883119079487e-10
3.459999999999991e-10,-3.0843640372707945e-10
3.469999999999991e-10,-3.0853139629465267e-10
3.479999999999991e-10,-3.086481854311021e-10
3.489999999999991e-10,-3.087860284005418e-10
3.499999999999991e-10,-3.089430405360013e-10
3.509999999999991e-10,-3.0916364959068645e-10
3.519999999999991e-10,-3.0949126597560776e-10
3.529999999999991e-10,-3.100436101459254e-10
3.539999999999991e-10,-3.1113175121862805e-10
3.549999999999991e-10,-3.1259092987284643e-10
3.559999999999991e-10,-3.1398398050870365e-10
3.569999999999991e-10,-3.1511437657466926e-10
3.5799999999999907e-10,-3.159662472956799e-10
3.5899999999999907e-10,-3.1627191197526534e-10
3.5999999999999907e-10,-3.1614525847956197e-10
3.6099999999999906e-10,-3.16020430525153e-10
3.6199999999999906e-10,-3.159986147473743e-10
3.6299999999999906e-10,-3.161030935278326e-10
3.6399999999999905e-10,-3.1635160349986573e-10
3.6499999999999905e-10,-3.1661713445111866e-10
3.6599999999999905e-10,-3.1692930676839336e-10
3.6699999999999904e-10,-3.172955200744932e-10
3.6799999999999904e-10,-3.176846648089225e-10
3.6899999999999904e-10,-3.18151529358089e-10
3.6999999999999903e-10,-3.1861528135955736e-10
3.7099999999999903e-10,-3.1909656961234453e-10
3.71999999999999e-10,-3.196186730211289e-10
3.72999999999999e-10,-3.200739186807913e-10
3.73999999999999e-10,-3.204801665630249e-10
3.74999999999999e-10,-3.2065339132954764e-10
3.75999999999999e-10,-3.2072501446219964e-10
3.76999999999999e-10,-3.207635616820645e-10
3.77999999999999e-10,-3.2079479479875445e-10
3.78999999999999e-10,-3.207604253948457e-10
3.79999999999999e-10,-3.206283182794454e-10
3.80999999999999e-10,-3.203706865662359e-10
3.81999999999999e-10,-3.1995257766388766e-10
3.82999999999999e-10,-3.1952356333012025e-10
3.83999999999999e-10,-3.191761331078387e-10
3.84999999999999e-10,-3.1908632452990173e-10
3.85999999999999e-10,-3.1929712307418233e-10
3.8699999999999897e-10,-3.1969506070910054e-10
3.8799999999999897e-10,-3.2025092647779817e-10
3.8899999999999897e-10,-3.210499650494146e-10
3.8999999999999896e-10,-3.221661373894672e-10
3.9099999999999896e-10,-3.2335617740569044e-10
3.9199999999999896e-10,-3.241755544207158e-10
3.9299999999999895e-10,-3.246201155501649e-10
3.9399999999999895e-10,-3.249534651489362e-10
3.9499999999999895e-10,-3.2518177871397504e-10
3.9599999999999894e-10,-3.2549246796093426e-10
3.9699999999999894e-10,-3.2606640527312217e-10
3.9799999999999894e-10,-3.269122799470625e-10
3.9899999999999893e-10,-3.2813560264098624e-10
3.9999999999999893e-10,-3.2985231684639495e-10
4.009999999999989e-10,-3.320711081758692e-10
4.019999999999989e-10,-3.3467737674785767e-10
4.029999999999989e-10,-3.374184849450077e-10
4.039999999999989e-10,-3.398957504566912e-10
4.049999999999989e-10,-3.414121578775927e-10
4.059999999999989e-10,-3.4229240908204815e-10
4.069999999999989e-10,-3.426365193821678e-10
4.079999999999989e-10,-3.431293047601708e-10
4.089999999999989e-10,-3.43794427821688e-10
4.099999999999989e-10,-3.4449961228333925e-10
4.109999999999989e-10,-3.453510199935953e-10
4.119999999999989e-10,-3.463161633604888e-10
4.129999999999989e-10,-3.473785710041539e-10
4.139999999999989e-10,-3.4846767512958164e-10
4.149999999999989e-10,-3.4951046067991465e-10
4.1599999999999887e-10,-3.496312004518028e-10
4.1699999999999887e-10,-3.498169355074544e-10
4.1799999999999887e-10,-3.50201448276197e-10
4.1899999999999886e-10,-3.507096065864762e-10
4.1999999999999886e-10,-3.512120893804889e-10
4.2099999999999886e-10,-3.517204771511467e-10
4.2199999999999885e-10,-3.520753671482358e-10
4.2299999999999885e-10,-3.523398197125366e-10
4.2399999999999885e-10,-3.5253030880663295e-10
4.2499999999999884e-10,-3.5271875034363276e-10
4.2599999999999884e-10,-3.529586438224777e-10
4.2699999999999884e-10,-3.532958299047326e-10
4.2799999999999883e-10,-3.53765474553858e-10
4.2899999999999883e-10,-3.542987478550673e-10
4.299999999999988e-10,-3.5469310627739767e-10
4.309999999999988e-10,-3.5504205015774487e-10
4.319999999999988e-10,-3.552792158038064e-10
4.329999999999988e-10,-3.552003294919459e-10
4.339999999999988e-10,-3.551566390816162e-10
4.349999999999988e-10,-3.551676731740439e-10
4.359999999999988e-10,-3.552801023217842e-10
4.369999999999988e-10,-3.551993809544402e-10
4.379999999999988e-10,-3.5472424915792145e-10
4.389999999999988e-10,-3.540699805832478e-10
4.399999999999988e-10,-3.534915427472843e-10
4.409999999999988e-10,-3.532931290246657e-10
